v1	d(Id(M1))/Id(M1)
Step Information: L=16n  (Run: 1/5)
0.000000000000000e+000	2.482447e+001
1.000000000000000e-003	2.451750e+001
2.000000000000000e-003	2.450510e+001
3.000000000000000e-003	2.449256e+001
4.000000000000000e-003	2.447986e+001
5.000000000000000e-003	2.446701e+001
6.000000000000000e-003	2.445400e+001
7.000000000000000e-003	2.444079e+001
8.000000000000000e-003	2.442739e+001
9.000000000000001e-003	2.441382e+001
1.000000000000000e-002	2.440009e+001
1.100000000000000e-002	2.438617e+001
1.200000000000000e-002	2.437210e+001
1.300000000000001e-002	2.435787e+001
1.400000000000001e-002	2.434346e+001
1.500000000000001e-002	2.432886e+001
1.600000000000001e-002	2.431408e+001
1.700000000000001e-002	2.429915e+001
1.800000000000001e-002	2.428405e+001
1.900000000000001e-002	2.426870e+001
2.000000000000001e-002	2.425322e+001
2.100000000000001e-002	2.423764e+001
2.200000000000001e-002	2.422181e+001
2.300000000000001e-002	2.420577e+001
2.400000000000001e-002	2.418954e+001
2.500000000000002e-002	2.417321e+001
2.600000000000002e-002	2.415670e+001
2.700000000000002e-002	2.413991e+001
2.800000000000002e-002	2.412301e+001
2.900000000000002e-002	2.410597e+001
3.000000000000002e-002	2.408866e+001
3.100000000000002e-002	2.407120e+001
3.200000000000002e-002	2.405359e+001
3.300000000000002e-002	2.403573e+001
3.400000000000002e-002	2.401769e+001
3.500000000000002e-002	2.399952e+001
3.600000000000003e-002	2.398117e+001
3.700000000000003e-002	2.396255e+001
3.800000000000003e-002	2.394377e+001
3.900000000000003e-002	2.392486e+001
4.000000000000003e-002	2.390572e+001
4.100000000000003e-002	2.388637e+001
4.200000000000003e-002	2.386684e+001
4.300000000000003e-002	2.384715e+001
4.400000000000003e-002	2.382724e+001
4.500000000000003e-002	2.380712e+001
4.600000000000003e-002	2.378682e+001
4.700000000000004e-002	2.376634e+001
4.800000000000004e-002	2.374566e+001
4.900000000000004e-002	2.372479e+001
5.000000000000004e-002	2.370369e+001
5.100000000000004e-002	2.368238e+001
5.200000000000004e-002	2.366094e+001
5.300000000000004e-002	2.363931e+001
5.400000000000004e-002	2.361743e+001
5.500000000000004e-002	2.359533e+001
5.600000000000004e-002	2.357305e+001
5.700000000000004e-002	2.355055e+001
5.800000000000005e-002	2.352792e+001
5.900000000000005e-002	2.350502e+001
6.000000000000005e-002	2.348192e+001
6.100000000000005e-002	2.345867e+001
6.200000000000005e-002	2.343515e+001
6.300000000000004e-002	2.341145e+001
6.400000000000004e-002	2.338757e+001
6.500000000000004e-002	2.336347e+001
6.600000000000005e-002	2.333914e+001
6.700000000000005e-002	2.331462e+001
6.800000000000005e-002	2.328988e+001
6.900000000000005e-002	2.326493e+001
7.000000000000005e-002	2.323978e+001
7.100000000000005e-002	2.321442e+001
7.200000000000005e-002	2.318885e+001
7.300000000000005e-002	2.316306e+001
7.400000000000005e-002	2.313708e+001
7.500000000000005e-002	2.311089e+001
7.600000000000005e-002	2.308447e+001
7.700000000000006e-002	2.305781e+001
7.800000000000006e-002	2.303094e+001
7.900000000000006e-002	2.300392e+001
8.000000000000006e-002	2.297667e+001
8.100000000000006e-002	2.294915e+001
8.200000000000006e-002	2.292144e+001
8.300000000000006e-002	2.289354e+001
8.400000000000006e-002	2.286542e+001
8.500000000000006e-002	2.283708e+001
8.600000000000006e-002	2.280845e+001
8.700000000000006e-002	2.277970e+001
8.800000000000006e-002	2.275071e+001
8.900000000000007e-002	2.272147e+001
9.000000000000007e-002	2.269204e+001
9.100000000000007e-002	2.266240e+001
9.200000000000007e-002	2.263252e+001
9.300000000000007e-002	2.260241e+001
9.400000000000007e-002	2.257210e+001
9.500000000000007e-002	2.254159e+001
9.600000000000007e-002	2.251084e+001
9.700000000000007e-002	2.247984e+001
9.800000000000007e-002	2.244866e+001
9.900000000000007e-002	2.241724e+001
1.000000000000001e-001	2.238560e+001
1.010000000000001e-001	2.235376e+001
1.020000000000001e-001	2.232171e+001
1.030000000000001e-001	2.228939e+001
1.040000000000001e-001	2.225686e+001
1.050000000000001e-001	2.222414e+001
1.060000000000001e-001	2.219118e+001
1.070000000000001e-001	2.215799e+001
1.080000000000001e-001	2.212457e+001
1.090000000000001e-001	2.209097e+001
1.100000000000001e-001	2.205715e+001
1.110000000000001e-001	2.202302e+001
1.120000000000001e-001	2.198869e+001
1.130000000000001e-001	2.195425e+001
1.140000000000001e-001	2.191952e+001
1.150000000000001e-001	2.188449e+001
1.160000000000001e-001	2.184932e+001
1.170000000000001e-001	2.181393e+001
1.180000000000001e-001	2.177827e+001
1.190000000000001e-001	2.174241e+001
1.200000000000001e-001	2.170638e+001
1.210000000000001e-001	2.167004e+001
1.220000000000001e-001	2.163351e+001
1.230000000000001e-001	2.159677e+001
1.240000000000001e-001	2.155976e+001
1.250000000000001e-001	2.152260e+001
1.260000000000001e-001	2.148515e+001
1.270000000000001e-001	2.144750e+001
1.280000000000001e-001	2.140966e+001
1.290000000000001e-001	2.137152e+001
1.300000000000001e-001	2.133318e+001
1.310000000000001e-001	2.129467e+001
1.320000000000001e-001	2.125589e+001
1.330000000000001e-001	2.121687e+001
1.340000000000001e-001	2.117767e+001
1.350000000000001e-001	2.113823e+001
1.360000000000001e-001	2.109853e+001
1.370000000000001e-001	2.105861e+001
1.380000000000001e-001	2.101848e+001
1.390000000000001e-001	2.097812e+001
1.400000000000001e-001	2.093759e+001
1.410000000000001e-001	2.089677e+001
1.420000000000001e-001	2.085571e+001
1.430000000000001e-001	2.081447e+001
1.440000000000001e-001	2.077292e+001
1.450000000000001e-001	2.073121e+001
1.460000000000001e-001	2.068933e+001
1.470000000000001e-001	2.064716e+001
1.480000000000001e-001	2.060470e+001
1.490000000000001e-001	2.056204e+001
1.500000000000001e-001	2.051922e+001
1.510000000000001e-001	2.047618e+001
1.520000000000001e-001	2.043281e+001
1.530000000000001e-001	2.038922e+001
1.540000000000001e-001	2.034548e+001
1.550000000000001e-001	2.030149e+001
1.560000000000001e-001	2.025725e+001
1.570000000000001e-001	2.021272e+001
1.580000000000001e-001	2.016801e+001
1.590000000000001e-001	2.012313e+001
1.600000000000001e-001	2.007794e+001
1.610000000000001e-001	2.003249e+001
1.620000000000001e-001	1.998686e+001
1.630000000000001e-001	1.994100e+001
1.640000000000001e-001	1.989488e+001
1.650000000000001e-001	1.984857e+001
1.660000000000001e-001	1.980197e+001
1.670000000000001e-001	1.975515e+001
1.680000000000001e-001	1.970811e+001
1.690000000000001e-001	1.966082e+001
1.700000000000001e-001	1.961329e+001
1.710000000000001e-001	1.956553e+001
1.720000000000001e-001	1.951756e+001
1.730000000000001e-001	1.946928e+001
1.740000000000001e-001	1.942084e+001
1.750000000000001e-001	1.937213e+001
1.760000000000001e-001	1.932313e+001
1.770000000000001e-001	1.927397e+001
1.780000000000001e-001	1.922452e+001
1.790000000000001e-001	1.917487e+001
1.800000000000001e-001	1.912494e+001
1.810000000000001e-001	1.907474e+001
1.820000000000001e-001	1.902440e+001
1.830000000000001e-001	1.897376e+001
1.840000000000001e-001	1.892285e+001
1.850000000000001e-001	1.887177e+001
1.860000000000001e-001	1.882041e+001
1.870000000000001e-001	1.876877e+001
1.880000000000001e-001	1.871694e+001
1.890000000000001e-001	1.866485e+001
1.900000000000001e-001	1.861252e+001
1.910000000000001e-001	1.855994e+001
1.920000000000001e-001	1.850711e+001
1.930000000000001e-001	1.845408e+001
1.940000000000001e-001	1.840079e+001
1.950000000000002e-001	1.834726e+001
1.960000000000002e-001	1.829344e+001
1.970000000000002e-001	1.823943e+001
1.980000000000002e-001	1.818519e+001
1.990000000000002e-001	1.813068e+001
2.000000000000002e-001	1.807595e+001
2.010000000000002e-001	1.802098e+001
2.020000000000002e-001	1.796574e+001
2.030000000000002e-001	1.791030e+001
2.040000000000002e-001	1.785461e+001
2.050000000000002e-001	1.779866e+001
2.060000000000002e-001	1.774254e+001
2.070000000000002e-001	1.768615e+001
2.080000000000002e-001	1.762949e+001
2.090000000000002e-001	1.757266e+001
2.100000000000002e-001	1.751556e+001
2.110000000000002e-001	1.745826e+001
2.120000000000002e-001	1.740069e+001
2.130000000000002e-001	1.734293e+001
2.140000000000002e-001	1.728497e+001
2.150000000000002e-001	1.722673e+001
2.160000000000002e-001	1.716829e+001
2.170000000000002e-001	1.710967e+001
2.180000000000002e-001	1.705082e+001
2.190000000000002e-001	1.699168e+001
2.200000000000002e-001	1.693241e+001
2.210000000000002e-001	1.687294e+001
2.220000000000002e-001	1.681320e+001
2.230000000000002e-001	1.675325e+001
2.240000000000002e-001	1.669312e+001
2.250000000000002e-001	1.663284e+001
2.260000000000002e-001	1.657234e+001
2.270000000000002e-001	1.651163e+001
2.280000000000002e-001	1.645071e+001
2.290000000000002e-001	1.638960e+001
2.300000000000002e-001	1.632833e+001
2.310000000000002e-001	1.626689e+001
2.320000000000002e-001	1.620529e+001
2.330000000000002e-001	1.614348e+001
2.340000000000002e-001	1.608145e+001
2.350000000000002e-001	1.601931e+001
2.360000000000002e-001	1.595701e+001
2.370000000000002e-001	1.589450e+001
2.380000000000002e-001	1.583189e+001
2.390000000000002e-001	1.576912e+001
2.400000000000002e-001	1.570619e+001
2.410000000000002e-001	1.564313e+001
2.420000000000002e-001	1.557989e+001
2.430000000000002e-001	1.551655e+001
2.440000000000002e-001	1.545305e+001
2.450000000000002e-001	1.538944e+001
2.460000000000002e-001	1.532573e+001
2.470000000000002e-001	1.526186e+001
2.480000000000002e-001	1.519790e+001
2.490000000000002e-001	1.513383e+001
2.500000000000002e-001	1.506965e+001
2.510000000000002e-001	1.500540e+001
2.520000000000002e-001	1.494104e+001
2.530000000000002e-001	1.487656e+001
2.540000000000002e-001	1.481204e+001
2.550000000000002e-001	1.474746e+001
2.560000000000002e-001	1.468277e+001
2.570000000000002e-001	1.461794e+001
2.580000000000002e-001	1.455312e+001
2.590000000000002e-001	1.448832e+001
2.600000000000002e-001	1.442336e+001
2.610000000000002e-001	1.435837e+001
2.620000000000002e-001	1.429338e+001
2.630000000000002e-001	1.422831e+001
2.640000000000002e-001	1.416325e+001
2.650000000000002e-001	1.409816e+001
2.660000000000002e-001	1.403297e+001
2.670000000000002e-001	1.396786e+001
2.680000000000002e-001	1.390276e+001
2.690000000000002e-001	1.383754e+001
2.700000000000002e-001	1.377242e+001
2.710000000000002e-001	1.370729e+001
2.720000000000002e-001	1.364212e+001
2.730000000000002e-001	1.357703e+001
2.740000000000002e-001	1.351199e+001
2.750000000000002e-001	1.344691e+001
2.760000000000002e-001	1.338188e+001
2.770000000000002e-001	1.331694e+001
2.780000000000002e-001	1.325201e+001
2.790000000000002e-001	1.318712e+001
2.800000000000002e-001	1.312229e+001
2.810000000000002e-001	1.305755e+001
2.820000000000002e-001	1.299287e+001
2.830000000000002e-001	1.292828e+001
2.840000000000002e-001	1.286371e+001
2.850000000000002e-001	1.279927e+001
2.860000000000002e-001	1.273492e+001
2.870000000000002e-001	1.267067e+001
2.880000000000002e-001	1.260652e+001
2.890000000000002e-001	1.254245e+001
2.900000000000002e-001	1.247848e+001
2.910000000000002e-001	1.241468e+001
2.920000000000002e-001	1.235097e+001
2.930000000000002e-001	1.228735e+001
2.940000000000002e-001	1.222393e+001
2.950000000000002e-001	1.216063e+001
2.960000000000002e-001	1.209742e+001
2.970000000000002e-001	1.203437e+001
2.980000000000002e-001	1.197147e+001
2.990000000000002e-001	1.190876e+001
3.000000000000002e-001	1.184620e+001
3.010000000000002e-001	1.178377e+001
3.020000000000002e-001	1.172151e+001
3.030000000000002e-001	1.165943e+001
3.040000000000002e-001	1.159754e+001
3.050000000000002e-001	1.153584e+001
3.060000000000002e-001	1.147431e+001
3.070000000000002e-001	1.141293e+001
3.080000000000002e-001	1.135174e+001
3.090000000000002e-001	1.129079e+001
3.100000000000002e-001	1.123006e+001
3.110000000000002e-001	1.116943e+001
3.120000000000002e-001	1.110910e+001
3.130000000000002e-001	1.104895e+001
3.140000000000002e-001	1.098900e+001
3.150000000000002e-001	1.092931e+001
3.160000000000002e-001	1.086978e+001
3.170000000000002e-001	1.081047e+001
3.180000000000002e-001	1.075145e+001
3.190000000000002e-001	1.069266e+001
3.200000000000002e-001	1.063401e+001
3.210000000000002e-001	1.057566e+001
3.220000000000002e-001	1.051757e+001
3.230000000000002e-001	1.045964e+001
3.240000000000002e-001	1.040198e+001
3.250000000000002e-001	1.034465e+001
3.260000000000002e-001	1.028749e+001
3.270000000000002e-001	1.023057e+001
3.280000000000002e-001	1.017393e+001
3.290000000000002e-001	1.011755e+001
3.300000000000002e-001	1.006141e+001
3.310000000000002e-001	1.000552e+001
3.320000000000002e-001	9.949896e+000
3.330000000000002e-001	9.894530e+000
3.340000000000002e-001	9.839473e+000
3.350000000000002e-001	9.784638e+000
3.360000000000002e-001	9.730074e+000
3.370000000000002e-001	9.675783e+000
3.380000000000002e-001	9.621769e+000
3.390000000000003e-001	9.568031e+000
3.400000000000003e-001	9.514573e+000
3.410000000000003e-001	9.461395e+000
3.420000000000003e-001	9.408460e+000
3.430000000000003e-001	9.355809e+000
3.440000000000003e-001	9.303444e+000
3.450000000000003e-001	9.251366e+000
3.460000000000003e-001	9.199535e+000
3.470000000000003e-001	9.148034e+000
3.480000000000003e-001	9.096781e+000
3.490000000000003e-001	9.045818e+000
3.500000000000003e-001	8.995184e+000
3.510000000000003e-001	8.944800e+000
3.520000000000003e-001	8.894668e+000
3.530000000000003e-001	8.844826e+000
3.540000000000003e-001	8.795349e+000
3.550000000000003e-001	8.746085e+000
3.560000000000003e-001	8.697111e+000
3.570000000000003e-001	8.648460e+000
3.580000000000003e-001	8.600060e+000
3.590000000000003e-001	8.551982e+000
3.600000000000003e-001	8.504154e+000
3.610000000000003e-001	8.456645e+000
3.620000000000003e-001	8.409419e+000
3.630000000000003e-001	8.362440e+000
3.640000000000003e-001	8.315810e+000
3.650000000000003e-001	8.269425e+000
3.660000000000003e-001	8.223351e+000
3.670000000000003e-001	8.177552e+000
3.680000000000003e-001	8.132028e+000
3.690000000000003e-001	8.086810e+000
3.700000000000003e-001	8.041862e+000
3.710000000000003e-001	7.997215e+000
3.720000000000003e-001	7.952836e+000
3.730000000000003e-001	7.908753e+000
3.740000000000003e-001	7.864965e+000
3.750000000000003e-001	7.821438e+000
3.760000000000003e-001	7.778201e+000
3.770000000000003e-001	7.735252e+000
3.780000000000003e-001	7.692588e+000
3.790000000000003e-001	7.650206e+000
3.800000000000003e-001	7.608074e+000
3.810000000000003e-001	7.566221e+000
3.820000000000003e-001	7.524732e+000
3.830000000000003e-001	7.483484e+000
3.840000000000003e-001	7.442448e+000
3.850000000000003e-001	7.401738e+000
3.860000000000003e-001	7.361292e+000
3.870000000000003e-001	7.321109e+000
3.880000000000003e-001	7.281241e+000
3.890000000000003e-001	7.241629e+000
3.900000000000003e-001	7.202272e+000
3.910000000000003e-001	7.163165e+000
3.920000000000003e-001	7.124362e+000
3.930000000000003e-001	7.085859e+000
3.940000000000003e-001	7.047598e+000
3.950000000000003e-001	7.009630e+000
3.960000000000003e-001	6.971846e+000
3.970000000000003e-001	6.934350e+000
3.980000000000003e-001	6.897191e+000
3.990000000000003e-001	6.860208e+000
4.000000000000003e-001	6.823504e+000
4.010000000000003e-001	6.787126e+000
4.020000000000003e-001	6.750916e+000
4.030000000000003e-001	6.714976e+000
4.040000000000003e-001	6.679352e+000
4.050000000000003e-001	6.643990e+000
4.060000000000003e-001	6.608836e+000
4.070000000000003e-001	6.573889e+000
4.080000000000003e-001	6.539245e+000
4.090000000000003e-001	6.504852e+000
4.100000000000003e-001	6.470705e+000
4.110000000000003e-001	6.436801e+000
4.120000000000003e-001	6.403139e+000
4.130000000000003e-001	6.369714e+000
4.140000000000003e-001	6.336525e+000
4.150000000000003e-001	6.303615e+000
4.160000000000003e-001	6.270933e+000
4.170000000000003e-001	6.238478e+000
4.180000000000003e-001	6.206245e+000
4.190000000000003e-001	6.174279e+000
4.200000000000003e-001	6.142529e+000
4.210000000000003e-001	6.110994e+000
4.220000000000003e-001	6.079716e+000
4.230000000000003e-001	6.048647e+000
4.240000000000003e-001	6.017828e+000
4.250000000000003e-001	5.987213e+000
4.260000000000003e-001	5.956842e+000
4.270000000000003e-001	5.926668e+000
4.280000000000003e-001	5.896734e+000
4.290000000000003e-001	5.867078e+000
4.300000000000003e-001	5.837567e+000
4.310000000000003e-001	5.808245e+000
4.320000000000003e-001	5.779192e+000
4.330000000000003e-001	5.750405e+000
4.340000000000003e-001	5.721754e+000
4.350000000000003e-001	5.693323e+000
4.360000000000003e-001	5.665148e+000
4.370000000000003e-001	5.637144e+000
4.380000000000003e-001	5.609350e+000
4.390000000000003e-001	5.581764e+000
4.400000000000003e-001	5.554383e+000
4.410000000000003e-001	5.527203e+000
4.420000000000003e-001	5.500223e+000
4.430000000000003e-001	5.473480e+000
4.440000000000003e-001	5.446891e+000
4.450000000000003e-001	5.420494e+000
4.460000000000003e-001	5.394364e+000
4.470000000000003e-001	5.368382e+000
4.480000000000003e-001	5.342545e+000
4.490000000000003e-001	5.316967e+000
4.500000000000003e-001	5.291568e+000
4.510000000000004e-001	5.266308e+000
4.520000000000004e-001	5.241299e+000
4.530000000000004e-001	5.216462e+000
4.540000000000004e-001	5.191795e+000
4.550000000000004e-001	5.167332e+000
4.560000000000004e-001	5.143035e+000
4.570000000000004e-001	5.118901e+000
4.580000000000004e-001	5.094964e+000
4.590000000000004e-001	5.071223e+000
4.600000000000004e-001	5.047638e+000
4.610000000000004e-001	5.024244e+000
4.620000000000004e-001	5.001001e+000
4.630000000000004e-001	4.977909e+000
4.640000000000004e-001	4.955037e+000
4.650000000000004e-001	4.932346e+000
4.660000000000004e-001	4.909798e+000
4.670000000000004e-001	4.887393e+000
4.680000000000004e-001	4.865162e+000
4.690000000000004e-001	4.843140e+000
4.700000000000004e-001	4.821252e+000
4.710000000000004e-001	4.799499e+000
4.720000000000004e-001	4.777913e+000
4.730000000000004e-001	4.756526e+000
4.740000000000004e-001	4.735301e+000
4.750000000000004e-001	4.714168e+000
4.760000000000004e-001	4.693228e+000
4.770000000000004e-001	4.672478e+000
4.780000000000004e-001	4.651849e+000
4.790000000000004e-001	4.631339e+000
4.800000000000004e-001	4.611014e+000
4.810000000000004e-001	4.590871e+000
4.820000000000004e-001	4.570808e+000
4.830000000000004e-001	4.550925e+000
4.840000000000004e-001	4.531184e+000
4.850000000000004e-001	4.511586e+000
4.860000000000004e-001	4.492159e+000
4.870000000000004e-001	4.472807e+000
4.880000000000004e-001	4.453656e+000
4.890000000000004e-001	4.434639e+000
4.900000000000004e-001	4.415723e+000
4.910000000000004e-001	4.397003e+000
4.920000000000004e-001	4.378381e+000
4.930000000000004e-001	4.359887e+000
4.940000000000004e-001	4.341520e+000
4.950000000000004e-001	4.323309e+000
4.960000000000004e-001	4.305253e+000
4.970000000000004e-001	4.287288e+000
4.980000000000004e-001	4.269444e+000
4.990000000000004e-001	4.251749e+000
5.000000000000000e-001	4.233990e+000
Step Information: L=32n  (Run: 2/5)
0.000000000000000e+000	8.589034e+000
1.000000000000000e-003	8.662793e+000
2.000000000000000e-003	8.882077e+000
3.000000000000000e-003	9.102236e+000
4.000000000000000e-003	9.323061e+000
5.000000000000000e-003	9.544459e+000
6.000000000000000e-003	9.766441e+000
7.000000000000000e-003	9.988821e+000
8.000000000000000e-003	1.021145e+001
9.000000000000001e-003	1.043436e+001
1.000000000000000e-002	1.065735e+001
1.100000000000000e-002	1.088032e+001
1.200000000000000e-002	1.110322e+001
1.300000000000001e-002	1.132594e+001
1.400000000000001e-002	1.154833e+001
1.500000000000001e-002	1.177032e+001
1.600000000000001e-002	1.199182e+001
1.700000000000001e-002	1.221271e+001
1.800000000000001e-002	1.243293e+001
1.900000000000001e-002	1.265231e+001
2.000000000000001e-002	1.287082e+001
2.100000000000001e-002	1.308837e+001
2.200000000000001e-002	1.330480e+001
2.300000000000001e-002	1.352009e+001
2.400000000000001e-002	1.373413e+001
2.500000000000002e-002	1.394679e+001
2.600000000000002e-002	1.415806e+001
2.700000000000002e-002	1.436777e+001
2.800000000000002e-002	1.457591e+001
2.900000000000002e-002	1.478243e+001
3.000000000000002e-002	1.498722e+001
3.100000000000002e-002	1.519016e+001
3.200000000000002e-002	1.539120e+001
3.300000000000002e-002	1.559031e+001
3.400000000000002e-002	1.578739e+001
3.500000000000002e-002	1.598245e+001
3.600000000000003e-002	1.617543e+001
